#	 1:T[k]	 2:Cp[J/kg/K] 	3:h[J/kg]
 2.000000e+02 1.010785e+03 3.449783e+05
 3.000000e+02 1.013015e+03 4.461365e+05
 4.000000e+02 1.021485e+03 5.477988e+05
 5.000000e+02 1.037387e+03 6.506842e+05
 6.000000e+02 1.058732e+03 7.554615e+05
 7.000000e+02 1.090336e+03 3.004658e+06
 8.000000e+02 1.116210e+03 3.115027e+06
 9.000000e+02 1.137721e+03 3.227755e+06
 1.000000e+03 1.156031e+03 3.342465e+06
 1.100000e+03 1.171898e+03 3.458882e+06
 1.200000e+03 1.185599e+03 3.576772e+06
 1.300000e+03 1.197695e+03 3.695949e+06
 1.400000e+03 1.208552e+03 3.816270e+06
 1.500000e+03 1.218418e+03 3.937626e+06
 1.600000e+03 1.227469e+03 4.059927e+06
 1.700000e+03 1.235831e+03 4.183097e+06
 1.800000e+03 1.243598e+03 4.307073e+06
 1.900000e+03 1.250842e+03 4.431799e+06
 2.000000e+03 1.257618e+03 4.557226e+06
 2.100000e+03 1.263972e+03 4.683309e+06
 2.200000e+03 1.269940e+03 4.810008e+06
 2.300000e+03 1.275553e+03 4.937285e+06
 2.400000e+03 1.280837e+03 5.065107e+06
 2.500000e+03 1.285815e+03 5.193442e+06
 2.600000e+03 1.290507e+03 5.322261e+06
 2.700000e+03 1.294931e+03 5.451535e+06
 2.800000e+03 1.299105e+03 5.581238e+06
 2.900000e+03 1.303042e+03 5.711348e+06
 3.000000e+03 1.306756e+03 5.841839e+06
 3.100000e+03 1.310263e+03 5.972692e+06
 3.200000e+03 1.313572e+03 6.103885e+06
 3.300000e+03 1.316698e+03 6.235400e+06
 3.400000e+03 1.319650e+03 6.367219e+06
 3.500000e+03 1.322441e+03 6.499325e+06
 3.600000e+03 1.325081e+03 6.631702e+06
 3.700000e+03 1.327580e+03 6.764336e+06
 3.800000e+03 1.329948e+03 6.897214e+06
 3.900000e+03 1.332195e+03 7.030322e+06
 4.000000e+03 1.334331e+03 7.163649e+06
 4.100000e+03 1.336365e+03 7.297185e+06
 4.200000e+03 1.338307e+03 7.430919e+06
 4.300000e+03 1.340166e+03 7.564843e+06
 4.400000e+03 1.341950e+03 7.698950e+06
 4.500000e+03 1.343668e+03 7.833231e+06
 4.600000e+03 1.345329e+03 7.967682e+06
 4.700000e+03 1.346942e+03 8.102296e+06
 4.800000e+03 1.348515e+03 8.237069e+06
 4.900000e+03 1.350057e+03 8.371998e+06
 5.000000e+03 1.351574e+03 8.507079e+06
 5.100000e+03 1.353077e+03 8.642312e+06
 5.200000e+03 1.354572e+03 8.777694e+06
 5.300000e+03 1.356068e+03 8.913226e+06
 5.400000e+03 1.357572e+03 9.048908e+06
 5.500000e+03 1.359092e+03 9.184741e+06
 5.600000e+03 1.360636e+03 9.320727e+06
 5.700000e+03 1.362211e+03 9.456869e+06
 5.800000e+03 1.363824e+03 9.593171e+06
 5.900000e+03 1.365484e+03 9.729636e+06
 6.000000e+03 1.367197e+03 9.866269e+06
 6.100000e+03 1.368806e+03 1.000307e+07
 6.200000e+03 1.370500e+03 1.014003e+07
 6.300000e+03 1.372275e+03 1.027717e+07
 6.400000e+03 1.374131e+03 1.041449e+07
 6.500000e+03 1.376065e+03 1.055200e+07
 6.600000e+03 1.378080e+03 1.068971e+07
 6.700000e+03 1.380178e+03 1.082762e+07
 6.800000e+03 1.382362e+03 1.096575e+07
 6.900000e+03 1.384635e+03 1.110409e+07
 7.000000e+03 1.387003e+03 1.124268e+07
 7.100000e+03 1.389472e+03 1.138150e+07
 7.200000e+03 1.392046e+03 1.152057e+07
 7.300000e+03 1.394734e+03 1.165991e+07
 7.400000e+03 1.397542e+03 1.179952e+07
 7.500000e+03 1.400478e+03 1.193942e+07
 7.600000e+03 1.403549e+03 1.207962e+07
 7.700000e+03 1.406764e+03 1.222014e+07
 7.800000e+03 1.410131e+03 1.236098e+07
 7.900000e+03 1.413658e+03 1.250217e+07
 8.000000e+03 1.417355e+03 1.264372e+07
 8.100000e+03 1.421230e+03 1.278565e+07
 8.200000e+03 1.425292e+03 1.292797e+07
 8.300000e+03 1.429550e+03 1.307071e+07
 8.400000e+03 1.434015e+03 1.321389e+07
 8.500000e+03 1.438695e+03 1.335752e+07
 8.600000e+03 1.443599e+03 1.350163e+07
 8.700000e+03 1.448737e+03 1.364625e+07
 8.800000e+03 1.454119e+03 1.379139e+07
 8.900000e+03 1.459754e+03 1.393708e+07
 9.000000e+03 1.465652e+03 1.408335e+07
 9.100000e+03 1.471823e+03 1.423022e+07
 9.200000e+03 1.478275e+03 1.437772e+07
 9.300000e+03 1.485019e+03 1.452589e+07
 9.400000e+03 1.492065e+03 1.467474e+07
 9.500000e+03 1.499422e+03 1.482431e+07
 9.600000e+03 1.507099e+03 1.497463e+07
 9.700000e+03 1.515107e+03 1.512574e+07
 9.800000e+03 1.523454e+03 1.527767e+07
 9.900000e+03 1.532151e+03 1.543044e+07
 1.000000e+04 1.541208e+03 1.558411e+07
 1.010000e+04 1.548037e+03 1.193741e+09
 1.020000e+04 1.555469e+03 1.193897e+09
 1.030000e+04 1.563466e+03 1.194053e+09
 1.040000e+04 1.571994e+03 1.194209e+09
 1.050000e+04 1.581018e+03 1.194367e+09
 1.060000e+04 1.590505e+03 1.194526e+09
 1.070000e+04 1.600421e+03 1.194685e+09
 1.080000e+04 1.610734e+03 1.194846e+09
 1.090000e+04 1.621411e+03 1.195007e+09
 1.100000e+04 1.632422e+03 1.195170e+09
 1.110000e+04 1.643736e+03 1.195334e+09
 1.120000e+04 1.655322e+03 1.195499e+09
 1.130000e+04 1.667151e+03 1.195665e+09
 1.140000e+04 1.679194e+03 1.195832e+09
 1.150000e+04 1.691423e+03 1.196001e+09
 1.160000e+04 1.703810e+03 1.196170e+09
 1.170000e+04 1.716329e+03 1.196341e+09
 1.180000e+04 1.728952e+03 1.196514e+09
 1.190000e+04 1.741655e+03 1.196687e+09
 1.200000e+04 1.754412e+03 1.196862e+09
 1.210000e+04 1.767198e+03 1.197038e+09
 1.220000e+04 1.779990e+03 1.197215e+09
 1.230000e+04 1.792765e+03 1.197394e+09
 1.240000e+04 1.805500e+03 1.197574e+09
 1.250000e+04 1.818172e+03 1.197755e+09
 1.260000e+04 1.830761e+03 1.197938e+09
 1.270000e+04 1.843247e+03 1.198121e+09
 1.280000e+04 1.855608e+03 1.198306e+09
 1.290000e+04 1.867825e+03 1.198492e+09
 1.300000e+04 1.879880e+03 1.198680e+09
 1.310000e+04 1.891755e+03 1.198868e+09
 1.320000e+04 1.903431e+03 1.199058e+09
 1.330000e+04 1.914893e+03 1.199249e+09
 1.340000e+04 1.926123e+03 1.199441e+09
 1.350000e+04 1.937106e+03 1.199634e+09
 1.360000e+04 1.947827e+03 1.199829e+09
 1.370000e+04 1.958272e+03 1.200024e+09
 1.380000e+04 1.968427e+03 1.200220e+09
 1.390000e+04 1.978278e+03 1.200418e+09
 1.400000e+04 1.987815e+03 1.200616e+09
 1.410000e+04 1.997023e+03 1.200815e+09
 1.420000e+04 2.005893e+03 1.201015e+09
 1.430000e+04 2.014414e+03 1.201216e+09
 1.440000e+04 2.022576e+03 1.201418e+09
 1.450000e+04 2.030370e+03 1.201621e+09
 1.460000e+04 2.037787e+03 1.201824e+09
 1.470000e+04 2.044819e+03 1.202028e+09
 1.480000e+04 2.051459e+03 1.202233e+09
 1.490000e+04 2.057700e+03 1.202439e+09
 1.500000e+04 2.063536e+03 1.202645e+09
 1.510000e+04 2.068961e+03 1.202851e+09
 1.520000e+04 2.073972e+03 1.203058e+09
 1.530000e+04 2.078563e+03 1.203266e+09
 1.540000e+04 2.082732e+03 1.203474e+09
 1.550000e+04 2.086475e+03 1.203683e+09
 1.560000e+04 2.089790e+03 1.203891e+09
 1.570000e+04 2.092676e+03 1.204101e+09
 1.580000e+04 2.095132e+03 1.204310e+09
 1.590000e+04 2.097158e+03 1.204520e+09
 1.600000e+04 2.098754e+03 1.204729e+09
 1.610000e+04 2.099920e+03 1.204939e+09
 1.620000e+04 2.100660e+03 1.205149e+09
 1.630000e+04 2.100975e+03 1.205359e+09
 1.640000e+04 2.100868e+03 1.205570e+09
 1.650000e+04 2.100342e+03 1.205780e+09
 1.660000e+04 2.099403e+03 1.205990e+09
 1.670000e+04 2.098055e+03 1.206199e+09
 1.680000e+04 2.096303e+03 1.206409e+09
 1.690000e+04 2.094154e+03 1.206619e+09
 1.700000e+04 2.091615e+03 1.206828e+09
 1.710000e+04 2.088694e+03 1.207037e+09
 1.720000e+04 2.085397e+03 1.207246e+09
 1.730000e+04 2.081735e+03 1.207454e+09
 1.740000e+04 2.077717e+03 1.207662e+09
 1.750000e+04 2.073353e+03 1.207870e+09
 1.760000e+04 2.068654e+03 1.208077e+09
 1.770000e+04 2.063630e+03 1.208283e+09
 1.780000e+04 2.058296e+03 1.208489e+09
 1.790000e+04 2.052662e+03 1.208695e+09
 1.800000e+04 2.046742e+03 1.208900e+09
 1.810000e+04 2.040552e+03 1.209104e+09
 1.820000e+04 2.034104e+03 1.209308e+09
 1.830000e+04 2.027415e+03 1.209511e+09
 1.840000e+04 2.020501e+03 1.209714e+09
 1.850000e+04 2.013378e+03 1.209915e+09
 1.860000e+04 2.006064e+03 1.210116e+09
 1.870000e+04 1.998577e+03 1.210316e+09
 1.880000e+04 1.990934e+03 1.210516e+09
 1.890000e+04 1.983157e+03 1.210715e+09
 1.900000e+04 1.975264e+03 1.210913e+09
 1.910000e+04 1.967275e+03 1.211110e+09
 1.920000e+04 1.959214e+03 1.211306e+09
 1.930000e+04 1.951100e+03 1.211501e+09
 1.940000e+04 1.942958e+03 1.211696e+09
 1.950000e+04 1.934809e+03 1.211890e+09
 1.960000e+04 1.926679e+03 1.212083e+09
 1.970000e+04 1.918591e+03 1.212275e+09
 1.980000e+04 1.910571e+03 1.212467e+09
 1.990000e+04 1.902644e+03 1.212658e+09
 2.000000e+04 1.894837e+03 1.212847e+09